betaW,density
-179.99,305.0
-175.75505882352942,200.0
-171.52011764705884,150.0
-167.28517647058825,80.0
-163.05023529411767,50.0
-158.81529411764706,26.0
-154.58035294117647,8.0
-150.3454117647059,1.0
-146.1104705882353,1.0
-141.87552941176472,0.0
-137.64058823529413,0.0
-133.40564705882355,0.0
-129.17070588235293,0.0
-124.93576470588236,0.0
-120.70082352941176,0.0
-116.46588235294118,0.0
-112.2309411764706,0.0
-107.99600000000001,0.0
-103.76105882352942,0.0
-99.52611764705883,0.0
-95.29117647058824,0.0
-91.05623529411766,0.0
-86.82129411764706,0.0
-82.58635294117647,0.0
-78.35141176470589,0.0
-74.1164705882353,0.0
-69.88152941176472,0.0
-65.64658823529412,0.0
-61.41164705882353,0.0
-57.17670588235295,0.0
-52.94176470588235,0.0
-48.706823529411764,0.0
-44.47188235294118,0.0
-40.236941176470594,0.0
-36.00200000000001,0.0
-31.767058823529425,0.0
-27.53211764705884,0.0
-23.297176470588226,0.0
-19.06223529411764,0.0
-14.827294117647057,0.0
-10.592352941176472,0.0
-6.357411764705887,0.0
-2.122470588235302,0.0
2.1124705882352828,0.0
6.347411764705896,0.0
10.582352941176481,0.0
14.817294117647066,0.0
19.05223529411765,0.0
23.287176470588236,0.0
27.52211764705882,0.0
31.757058823529405,1.0
35.99199999999999,0.0
40.226941176470575,1.0
44.46188235294119,1.0
48.69682352941177,0.0
52.93176470588236,1.0
57.16670588235294,1.0
61.40164705882353,3.0
65.63658823529411,2.0
69.8715294117647,2.0
74.10647058823531,0.0
78.34141176470587,0.0
82.57635294117648,0.0
86.81129411764704,0.0
91.04623529411765,1.0
95.28117647058826,0.0
99.51611764705882,3.0
103.75105882352943,12.0
107.98599999999999,30.0
112.2209411764706,41.0
116.45588235294116,56.0
120.69082352941177,73.0
124.92576470588233,150.0
129.16070588235294,174.0
133.39564705882356,211.0
137.6305882352941,234.0
141.86552941176473,277.0
146.10047058823528,269.0
150.3354117647059,311.0
154.57035294117645,338.0
158.80529411764707,365.0
163.04023529411768,402.0
167.27517647058824,426.0
171.51011764705885,434.0
175.7450588235294,360.0
