betaW,density
-180.0,410.0
-176.08695652173913,250.0
-172.17391304347825,166.0
-168.26086956521738,90.0
-164.34782608695653,51.0
-160.43478260869566,32.0
-156.52173913043478,13.0
-152.6086956521739,10.0
-148.69565217391303,4.0
-144.7826086956522,2.0
-140.8695652173913,1.0
-136.95652173913044,0.0
-133.04347826086956,0.0
-129.1304347826087,0.0
-125.21739130434783,0.0
-121.30434782608695,0.0
-117.3913043478261,0.0
-113.47826086956522,0.0
-109.56521739130434,0.0
-105.65217391304348,0.0
-101.73913043478261,0.0
-97.82608695652173,0.0
-93.91304347826087,0.0
-90.0,0.0
-86.08695652173913,0.0
-82.17391304347827,1.0
-78.26086956521739,0.0
-74.34782608695652,0.0
-70.43478260869566,0.0
-66.52173913043478,0.0
-62.60869565217391,0.0
-58.69565217391305,0.0
-54.78260869565217,0.0
-50.86956521739131,0.0
-46.95652173913044,0.0
-43.04347826086956,0.0
-39.13043478260869,0.0
-35.217391304347814,0.0
-31.304347826086968,0.0
-27.391304347826093,0.0
-23.47826086956522,0.0
-19.565217391304344,0.0
-15.65217391304347,0.0
-11.739130434782595,0.0
-7.826086956521749,0.0
-3.9130434782608745,0.0
0.0,0.0
3.9130434782608745,0.0
7.826086956521749,0.0
11.739130434782624,0.0
15.65217391304347,0.0
19.565217391304344,0.0
23.47826086956522,0.0
27.391304347826093,0.0
31.304347826086968,0.0
35.21739130434784,0.0
39.13043478260869,0.0
43.04347826086956,3.0
46.95652173913044,3.0
50.86956521739131,2.0
54.782608695652186,8.0
58.69565217391306,11.0
62.60869565217391,6.0
66.52173913043478,10.0
70.43478260869566,7.0
74.34782608695653,6.0
78.26086956521738,2.0
82.17391304347825,5.0
86.08695652173913,0.0
90.0,0.0
93.91304347826087,0.0
97.82608695652175,1.0
101.73913043478262,1.0
105.6521739130435,0.0
109.56521739130437,3.0
113.47826086956525,2.0
117.39130434782606,18.0
121.30434782608694,21.0
125.21739130434781,25.0
129.1304347826087,34.0
133.04347826086956,36.0
136.95652173913044,67.0
140.8695652173913,65.0
144.7826086956522,96.0
148.69565217391306,143.0
152.60869565217394,198.0
156.5217391304348,307.0
160.43478260869568,448.0
164.3478260869565,649.0
168.26086956521738,631.0
172.17391304347825,635.0
176.08695652173913,527.0
