betaC,density
-180.0,171.0
-176.6038679245283,136.0
-173.2077358490566,106.0
-169.8116037735849,74.0
-166.4154716981132,51.0
-163.0193396226415,27.0
-159.6232075471698,18.0
-156.2270754716981,6.0
-152.83094339622642,6.0
-149.4348113207547,0.0
-146.03867924528302,2.0
-142.6425471698113,1.0
-139.24641509433962,0.0
-135.8502830188679,1.0
-132.45415094339623,0.0
-129.05801886792452,0.0
-125.66188679245283,0.0
-122.26575471698112,0.0
-118.86962264150944,0.0
-115.47349056603773,0.0
-112.07735849056603,0.0
-108.68122641509433,0.0
-105.28509433962263,0.0
-101.88896226415093,0.0
-98.49283018867924,0.0
-95.09669811320754,0.0
-91.70056603773584,0.0
-88.30443396226414,0.0
-84.90830188679244,0.0
-81.51216981132075,0.0
-78.11603773584905,0.0
-74.71990566037735,0.0
-71.32377358490565,0.0
-67.92764150943395,0.0
-64.53150943396226,0.0
-61.13537735849056,0.0
-57.73924528301886,0.0
-54.34311320754716,0.0
-50.94698113207545,0.0
-47.55084905660377,0.0
-44.154716981132054,0.0
-40.75858490566037,0.0
-37.36245283018866,0.0
-33.966320754716975,0.0
-30.570188679245263,0.0
-27.17405660377358,0.0
-23.777924528301867,0.0
-20.381792452830183,0.0
-16.98566037735847,0.0
-13.589528301886787,0.0
-10.193396226415075,0.0
-6.797264150943391,0.0
-3.401132075471679,0.0
-0.0049999999999954525,0.0
3.3911320754717167,0.0
6.7872641509434,0.0
10.183396226415113,0.0
13.579528301886796,0.0
16.97566037735851,0.0
20.371792452830192,0.0
23.767924528301904,0.0
27.164056603773588,0.0
30.5601886792453,0.0
33.956320754716984,0.0
37.352452830188696,0.0
40.74858490566041,0.0
44.14471698113209,0.0
47.540849056603804,0.0
50.93698113207549,0.0
54.3331132075472,0.0
57.729245283018884,0.0
61.125377358490596,0.0
64.52150943396228,0.0
67.91764150943399,0.0
71.31377358490568,0.0
74.70990566037739,0.0
78.1060377358491,0.0
81.50216981132075,0.0
84.89830188679247,0.0
88.29443396226418,0.0
91.69056603773589,0.0
95.08669811320755,1.0
98.48283018867926,1.0
101.87896226415097,4.0
105.27509433962268,10.0
108.67122641509434,17.0
112.06735849056605,29.0
115.46349056603776,39.0
118.85962264150947,66.0
122.25575471698113,78.0
125.65188679245284,85.0
129.04801886792455,147.0
132.44415094339627,182.0
135.84028301886792,201.0
139.23641509433963,246.0
142.63254716981135,269.0
146.02867924528306,305.0
149.42481132075477,336.0
152.82094339622643,331.0
156.21707547169814,314.0
159.61320754716985,317.0
163.00933962264156,328.0
166.40547169811322,298.0
169.80160377358493,302.0
173.19773584905664,238.0
176.59386792452835,257.0
