betaC,density
-179.98,251.0
-175.79430232558138,191.0
-171.60860465116278,130.0
-167.42290697674417,90.0
-163.23720930232557,39.0
-159.05151162790696,18.0
-154.86581395348836,14.0
-150.68011627906975,4.0
-146.49441860465114,2.0
-142.30872093023254,1.0
-138.12302325581393,0.0
-133.93732558139533,0.0
-129.75162790697675,0.0
-125.56593023255813,0.0
-121.38023255813953,0.0
-117.19453488372092,0.0
-113.00883720930231,0.0
-108.82313953488371,0.0
-104.6374418604651,0.0
-100.4517441860465,0.0
-96.26604651162789,0.0
-92.08034883720929,0.0
-87.89465116279068,0.0
-83.70895348837207,0.0
-79.52325581395348,0.0
-75.33755813953488,0.0
-71.15186046511627,0.0
-66.96616279069767,0.0
-62.78046511627906,0.0
-58.594767441860455,0.0
-54.40906976744185,0.0
-50.223372093023244,0.0
-46.03767441860464,0.0
-41.85197674418603,0.0
-37.66627906976743,0.0
-33.48058139534882,0.0
-29.294883720930216,0.0
-25.10918604651161,0.0
-20.923488372093004,0.0
-16.7377906976744,0.0
-12.552093023255793,0.0
-8.366395348837187,0.0
-4.180697674418582,0.0
0.005000000000023874,0.0
4.1906976744186295,0.0
8.376395348837235,0.0
12.56209302325584,0.0
16.747790697674446,0.0
20.933488372093024,0.0
25.11918604651163,0.0
29.304883720930235,0.0
33.49058139534884,0.0
37.676279069767446,0.0
41.86197674418605,0.0
46.04767441860466,0.0
50.23337209302326,0.0
54.41906976744187,0.0
58.604767441860474,0.0
62.79046511627908,0.0
66.97616279069769,0.0
71.16186046511629,0.0
75.3475581395349,0.0
79.5332558139535,0.0
83.71895348837214,0.0
87.90465116279071,0.0
92.09034883720929,0.0
96.27604651162792,1.0
100.4617441860465,7.0
104.64744186046514,15.0
108.83313953488371,33.0
113.01883720930235,51.0
117.20453488372092,81.0
121.39023255813956,117.0
125.57593023255814,177.0
129.76162790697677,211.0
133.94732558139535,244.0
138.13302325581398,258.0
142.31872093023256,279.0
146.5044186046512,305.0
150.69011627906977,303.0
154.8758139534884,317.0
159.06151162790698,343.0
163.24720930232561,343.0
167.4329069767442,417.0
171.61860465116283,398.0
175.8043023255814,360.0
